9.99555   929
10.005    911
10.0145   959
10.024    921
10.0335   1044
10.043    946
10.0525   1014
10.062    973
10.0715   993
10.081    994
10.0905   938
10.1      955
10.1095   941
10.119    942
10.1285   963
10.138    967
10.1475   938
10.157    965
10.1665   947
10.176    951
10.1855   970
10.195    919
10.2045   1009
10.214    966
10.2235   909
10.233    962
10.2425   923
10.252    958
10.2615   943
10.271    959
10.2805   899
10.29     902
10.2995   895
10.309    876
10.3185   989
10.328    924
10.3375   897
10.347    940
10.3565   960
10.366    967
10.3755   956
10.385    892
10.3945   955
10.404    950
10.4135   938
10.423    967
10.4325   929
10.442    948
10.4515   954
10.461    932
10.4705   938
10.48     927
10.4895   934
10.499    942
10.5085   898
10.518    915
10.5275   887
10.537    972
10.5465   949
10.556    892
10.5655   933
10.575    910
10.5845   926
10.594    896
10.6035   888
10.613    936
10.6225   929
10.632    951
10.6415   970
10.651    922
10.6605   844
10.67     931
10.6795   879
10.689    942
10.6985   922
10.708    930
10.7175   944
10.727    861
10.7365   937
10.746    942
10.7555   909
10.765    953
10.7745   908
10.784    945
10.7935   892
10.803    937
10.8125   908
10.822    912
10.8315   952
10.841    919
10.8505   918
10.86     868
10.8695   901
10.879    933
10.8885   892
10.898    906
10.9075   876
10.917    898
10.9265   917
10.936    933
10.9455   870
10.955    890
10.9645   951
10.974    927
10.9835   891
10.993    926
11.0025   869
11.012    926
11.0215   867
11.031    876
11.0405   924
11.05     944
11.0595   863
11.069    881
11.0785   883
11.088    827
11.0975   943
11.107    894
11.1165   870
11.126    884
11.1355   867
11.145    842
11.1545   897
11.164    864
11.1735   864
11.183    885
11.1925   925
11.202    855
11.2115   866
11.221    919
11.2305   846
11.24     901
11.2495   897
11.259    925
11.2685   857
11.278    846
11.2875   845
11.297    888
11.3065   945
11.316    951
11.3255   851
11.335    903
11.3445   866
11.354    864
11.3635   880
11.373    853
11.3825   874
11.392    888
11.4015   892
11.411    832
11.4205   857
11.43     869
11.4395   913
11.449    890
11.4585   869
11.468    881
11.4775   911
11.487    913
11.4965   852
11.506    894
11.5155   897
11.525    864
11.5345   844
11.544    879
11.5535   838
11.563    878
11.5725   857
11.582    874
11.5915   881
11.601    842
11.6105   849
11.62     846
11.6295   869
11.639    865
11.6485   871
11.658    812
11.6675   884
11.677    839
11.6865   884
11.696    828
11.7055   852
11.715    842
11.7245   867
11.734    802
11.7435   846
11.753    847
11.7625   867
11.772    885
11.7815   849
11.791    874
11.8005   793
11.81     829
11.8195   882
11.829    893
11.8385   862
11.848    847
11.8575   806
11.867    798
11.8765   828
11.886    827
11.8955   819
11.905    808
11.9145   808
11.924    869
11.9335   827
11.943    833
11.9525   865
11.962    895
11.9715   829
11.981    836
11.9905   839
12        780
12.0095   795
12.019    817
12.0285   777
12.038    820
12.0475   817
12.057    849
12.0665   818
12.076    820
12.0855   824
12.095    835
12.1045   811
12.114    760
12.1235   768
12.133    826
12.1425   848
12.152    812
12.1615   830
12.171    858
12.1805   793
12.19     820
12.1995   814
12.209    805
12.2185   836
12.228    823
12.2375   806
12.247    813
12.2565   822
12.266    827
12.2755   791
12.285    809
12.2945   804
12.304    812
12.3135   817
12.323    779
12.3325   778
12.342    786
12.3515   752
12.361    777
12.3705   789
12.38     888
12.3895   816
12.399    830
12.4085   803
12.418    784
12.4275   809
12.437    836
12.4465   837
12.456    853
12.4655   781
12.475    825
12.4845   802
12.494    841
12.5035   797
12.513    802
12.5225   754
12.532    862
12.5415   760
12.551    781
12.5605   781
12.57     780
12.5795   800
12.589    811
12.5985   834
12.608    752
12.6175   811
12.627    794
12.6365   713
12.646    770
12.6555   726
12.665    770
12.6745   804
12.684    798
12.6935   772
12.703    804
12.7125   724
12.722    817
12.7315   781
12.741    752
12.7505   798
12.76     774
12.7695   784
12.779    796
12.7885   745
12.798    771
12.8075   746
12.817    807
12.8265   769
12.836    781
12.8455   808
12.855    768
12.8645   822
12.874    787
12.8835   811
12.893    741
12.9025   799
12.912    778
12.9215   739
12.931    763
12.9405   760
12.95     806
12.9595   802
12.969    782
12.9785   774
12.988    801
12.9975   750
13.007    730
13.0165   781
13.026    760
13.0355   763
13.045    748
13.0545   775
13.064    777
13.0735   794
13.083    751
13.0925   776
13.102    745
13.1115   756
13.121    743
13.1305   777
13.14     732
13.1495   785
13.159    778
13.1685   794
13.178    712
13.1875   759
13.197    711
13.2065   805
13.216    725
13.2255   817
13.235    742
13.2445   746
13.254    753
13.2635   762
13.273    766
13.2825   748
13.292    750
13.3015   720
13.311    784
13.3205   716
13.33     782
13.3395   761
13.349    707
13.3585   780
13.368    773
13.3775   733
13.387    684
13.3965   730
13.406    758
13.4155   763
13.425    788
13.4345   726
13.444    757
13.4535   765
13.463    764
13.4725   725
13.482    764
13.4915   770
13.501    706
13.5105   749
13.52     677
13.5295   756
13.539    727
13.5485   752
13.558    690
13.5675   731
13.577    777
13.5865   720
13.596    764
13.6055   730
13.615    758
13.6245   766
13.634    747
13.6435   729
13.653    731
13.6625   762
13.672    670
13.6815   683
13.691    745
13.7005   715
13.71     793
13.7195   723
13.729    764
13.7385   704
13.748    693
13.7575   736
13.767    749
13.7765   707
13.786    713
13.7955   729
13.805    736
13.8145   687
13.824    765
13.8335   724
13.843    751
13.8525   722
13.862    783
13.8715   717
13.881    710
13.8905   739
13.9      716
13.9095   666
13.919    731
13.9285   696
13.938    742
13.9475   734
13.957    684
13.9665   672
13.976    722
13.9855   730
13.995    711
14.0045   788
14.014    714
14.0235   739
14.033    676
14.0425   771
14.052    715
14.0615   713
14.071    723
14.0805   740
14.09     758
14.0995   751
14.109    742
14.1185   701
14.128    761
14.1375   709
14.147    751
14.1565   725
14.166    732
14.1755   742
14.185    694
14.1945   732
14.204    768
14.2135   755
14.223    723
14.2325   804
14.242    801
14.2515   843
14.261    828
14.2705   808
14.28     852
14.2895   811
14.299    827
14.3085   841
14.318    845
14.3275   854
14.337    823
14.3465   829
14.356    800
14.3655   814
14.375    815
14.3845   747
14.394    751
14.4035   734
14.413    747
14.4225   712
14.432    712
14.4415   748
14.451    734
14.4605   760
14.47     722
14.4795   698
14.489    685
14.4985   703
14.508    698
14.5175   747
14.527    692
14.5365   751
14.546    685
14.5555   714
14.565    762
14.5745   731
14.584    718
14.5935   734
14.603    710
14.6125   782
14.622    690
14.6315   717
14.641    718
14.6505   740
14.66     674
14.6695   731
14.679    705
14.6885   714
14.698    705
14.7075   658
14.717    700
14.7265   678
14.736    668
14.7455   753
14.755    700
14.7645   717
14.774    744
14.7835   703
14.793    766
14.8025   703
14.812    696
14.8215   661
14.831    718
14.8405   723
14.85     643
14.8595   714
14.869    707
14.8785   770
14.888    683
14.8975   737
14.907    717
14.9165   724
14.926    688
14.9355   719
14.945    707
14.9545   727
14.964    751
14.9735   737
14.983    779
14.9925   690
15.002    720
15.0115   675
15.021    735
15.0305   712
15.04     698
15.0495   737
15.059    687
15.0685   733
15.078    686
15.0875   728
15.097    701
15.1065   712
15.116    682
15.1255   727
15.135    711
15.1445   684
15.154    690
15.1635   718
15.173    712
15.1825   697
15.192    686
15.2015   683
15.211    718
15.2205   716
15.23     707
15.2395   713
15.249    702
15.2585   695
15.268    715
15.2775   687
15.287    683
15.2965   656
15.306    692
15.3155   686
15.325    666
15.3345   698
15.344    730
15.3535   708
15.363    696
15.3725   672
15.382    739
15.3915   738
15.401    698
15.4105   711
15.42     732
15.4295   707
15.439    692
15.4485   704
15.458    721
15.4675   691
15.477    701
15.4865   726
15.496    684
15.5055   665
15.515    698
15.5245   690
15.534    731
15.5435   692
15.553    728
15.5625   709
15.572    672
15.5815   740
15.591    714
15.6005   669
15.61     692
15.6195   668
15.629    673
15.6385   724
15.648    721
15.6575   704
15.667    752
15.6765   694
15.686    715
15.6955   699
15.705    700
15.7145   676
15.724    733
15.7335   701
15.743    701
15.7525   718
15.762    702
15.7715   714
15.781    671
15.7905   654
15.8      672
15.8095   788
15.819    713
15.8285   754
15.838    703
15.8475   694
15.857    666
15.8665   722
15.876    735
15.8855   811
15.895    739
15.9045   728
15.914    723
15.9235   696
15.933    731
15.9425   727
15.952    702
15.9615   672
15.971    697
15.9805   721
15.99     689
15.9995   671
16.009    722
16.0185   724
16.028    686
16.0375   703
16.047    697
16.0565   716
16.066    728
16.0755   654
16.085    715
16.0945   702
16.104    666
16.1135   784
16.123    695
16.1325   715
16.142    739
16.1515   731
16.161    700
16.1705   686
16.18     677
16.1895   720
16.199    713
16.2085   680
16.218    661
16.2275   686
16.237    726
16.2465   736
16.256    727
16.2655   692
16.275    679
16.2845   664
16.294    703
16.3035   720
16.313    709
16.3225   751
16.332    717
16.3415   711
16.351    731
16.3605   697
16.37     683
16.3795   664
16.389    714
16.3985   644
16.408    740
16.4175   706
16.427    677
16.4365   661
16.446    666
16.4555   680
16.465    695
16.4745   750
16.484    721
16.4935   737
16.503    731
16.5125   736
16.522    737
16.5315   727
16.541    715
16.5505   695
16.56     718
16.5695   727
16.579    708
16.5885   694
16.598    704
16.6075   701
16.617    731
16.6265   719
16.636    683
16.6455   724
16.655    734
16.6645   703
16.674    763
16.6835   708
16.693    704
16.7025   684
16.712    674
16.7215   672
16.731    715
16.7405   752
16.75     665
16.7595   650
16.769    716
16.7785   681
16.788    717
16.7975   734
16.807    728
16.8165   741
16.826    741
16.8355   706
16.845    675
16.8545   678
16.864    684
16.8735   696
16.883    735
16.8925   686
16.902    712
16.9115   724
16.921    682
16.9305   656
16.94     721
16.9495   676
16.959    688
16.9685   669
16.978    688
16.9875   698
16.997    674
17.0065   680
17.016    707
17.0255   683
17.035    649
17.0445   732
17.054    654
17.0635   735
17.073    713
17.0825   674
17.092    671
17.1015   677
17.111    720
17.1205   639
17.13     712
17.1395   661
17.149    680
17.1585   674
17.168    706
17.1775   711
17.187    690
17.1965   667
17.206    717
17.2155   709
17.225    728
17.2345   710
17.244    744
17.2535   648
17.263    708
17.2725   719
17.282    701
17.2915   668
17.301    691
17.3105   685
17.32     718
17.3295   734
17.339    698
17.3485   738
17.358    706
17.3675   753
17.377    669
17.3865   717
17.396    680
17.4055   656
17.415    707
17.4245   669
17.434    708
17.4435   688
17.453    715
17.4625   687
17.472    638
17.4815   742
17.491    685
17.5005   708
17.51     708
17.5195   768
17.529    704
17.5385   680
17.548    707
17.5575   718
17.567    707
17.5765   673
17.586    646
17.5955   671
17.605    721
17.6145   671
17.624    684
17.6335   661
17.643    692
17.6525   695
17.662    651
17.6715   679
17.681    700
17.6905   653
17.7      731
17.7095   751
17.719    699
17.7285   688
17.738    694
17.7475   698
17.757    697
17.7665   708
17.776    675
17.7855   687
17.795    715
17.8045   691
17.814    684
17.8235   752
17.833    653
17.8425   701
17.852    655
17.8615   706
17.871    667
17.8805   739
17.89     726
17.8995   747
17.909    682
17.9185   682
17.928    726
17.9375   737
17.947    687
17.9565   675
17.966    725
17.9755   715
17.985    670
17.9945   722
18.004    672
18.0135   746
18.023    764
18.0325   727
18.042    720
18.0515   683
18.061    712
18.0705   707
18.08     682
18.0895   696
18.099    748
18.1085   679
18.118    691
18.1275   721
18.137    690
18.1465   693
18.156    715
18.1655   695
18.175    702
18.1845   677
18.194    663
18.2035   704
18.213    676
18.2225   704
18.232    719
18.2415   702
18.251    701
18.2605   689
18.27     745
18.2795   724
18.289    673
18.2985   700
18.308    706
18.3175   685
18.327    693
18.3365   696
18.346    657
18.3555   654
18.365    690
18.3745   720
18.384    703
18.3935   695
18.403    686
18.4125   729
18.422    707
18.4315   749
18.441    722
18.4505   727
18.46     706
18.4695   681
18.479    702
18.4885   654
18.498    682
18.5075   699
18.517    686
18.5265   706
18.536    665
18.5455   742
18.555    694
18.5645   748
18.574    660
18.5835   697
18.593    677
18.6025   735
18.612    732
18.6215   714
18.631    657
18.6405   690
18.65     687
18.6595   669
18.669    688
18.6785   737
18.688    728
18.6975   775
18.707    745
18.7165   752
18.726    687
18.7355   692
18.745    725
18.7545   708
18.764    719
18.7735   652
18.783    694
18.7925   725
18.802    715
18.8115   683
18.821    685
18.8305   708
18.84     677
18.8495   706
18.859    678
18.8685   709
18.878    687
18.8875   754
18.897    697
18.9065   727
18.916    761
18.9255   681
18.935    720
18.9445   716
18.954    705
18.9635   682
18.973    719
18.9825   739
18.992    733
19.0015   718
19.011    730
19.0205   682
19.03     708
19.0395   722
19.049    701
19.0585   622
19.068    720
19.0775   687
19.087    735
19.0965   726
19.106    696
19.1155   666
19.125    718
19.1345   669
19.144    639
19.1535   713
19.163    657
19.1725   689
19.182    664
19.1915   673
19.201    690
19.2105   707
19.22     685
19.2295   716
19.239    706
19.2485   746
19.258    705
19.2675   675
19.277    683
19.2865   720
19.296    726
19.3055   724
19.315    698
19.3245   679
19.334    682
19.3435   703
19.353    718
19.3625   710
19.372    701
19.3815   711
19.391    654
19.4005   721
19.41     714
19.4195   677
19.429    674
19.4385   659
19.448    707
19.4575   687
19.467    691
19.4765   711
19.486    712
19.4955   697
19.505    674
19.5145   653
19.524    691
19.5335   689
19.543    736
19.5525   722
19.562    704
19.5715   685
19.581    722
19.5905   762
19.6      678
19.6095   702
19.619    714
19.6285   701
19.638    678
19.6475   660
19.657    690
19.6665   711
19.676    703
19.6855   687
19.695    675
19.7045   710
19.714    684
19.7235   680
19.733    697
19.7425   736
19.752    664
19.7615   694
19.771    692
19.7805   716
19.79     633
19.7995   688
19.809    699
19.8185   651
19.828    698
19.8375   669
19.847    731
19.8565   686
19.866    680
19.8755   685
19.885    722
19.8945   692
19.904    699
19.9135   684
19.923    647
19.9325   667
19.942    683
19.9515   713
19.961    707
19.9705   655
19.98     690
19.9895   685
19.999    694
20.0085   671
20.018    700
20.0275   640
20.037    682
20.0465   670
20.056    749
20.0655   693
20.075    676
20.0845   688
20.094    650
20.1035   722
20.113    649
20.1225   686
20.132    712
20.1415   696
20.151    719
20.1605   669
20.17     668
20.1795   715
20.189    680
20.1985   725
20.208    695
20.2175   665
20.227    713
20.2365   658
20.246    662
20.2555   708
20.265    716
20.2745   730
20.284    689
20.2935   691
20.303    673
20.3125   708
20.322    708
20.3315   667
20.341    728
20.3505   675
20.36     713
20.3695   684
20.379    742
20.3885   664
20.398    659
20.4075   706
20.417    721
20.4265   726
20.436    676
20.4455   722
20.455    687
20.4645   693
20.474    711
20.4835   682
20.493    728
20.5025   698
20.512    637
20.5215   711
20.531    702
20.5405   696
20.55     679
20.5595   674
20.569    705
20.5785   754
20.588    661
20.5975   695
20.607    665
20.6165   635
20.626    657
20.6355   680
20.645    664
20.6545   709
20.664    658
20.6735   663
20.683    710
20.6925   692
20.702    674
20.7115   676
20.721    662
20.7305   701
20.74     674
20.7495   747
20.759    715
20.7685   676
20.778    685
20.7875   719
20.797    742
20.8065   667
20.816    663
20.8255   668
20.835    677
20.8445   757
20.854    728
20.8635   696
20.873    675
20.8825   688
20.892    695
20.9015   715
20.911    702
20.9205   707
20.93     717
20.9395   693
20.949    698
20.9585   691
20.968    642
20.9775   668
20.987    706
20.9965   754
21.006    635
21.0155   731
21.025    734
21.0345   708
21.044    723
21.0535   713
21.063    670
21.0725   706
21.082    675
21.0915   648
21.101    639
21.1105   665
21.12     646
21.1295   747
21.139    681
21.1485   721
21.158    666
21.1675   702
21.177    703
21.1865   663
21.196    752
21.2055   723
21.215    715
21.2245   731
21.234    695
21.2435   709
21.253    710
21.2625   705
21.272    731
21.2815   654
21.291    657
21.3005   698
21.31     747
21.3195   673
21.329    708
21.3385   619
21.348    634
21.3575   677
21.367    726
21.3765   712
21.386    734
21.3955   735
21.405    743
21.4145   683
21.424    688
21.4335   658
21.443    707
21.4525   679
21.462    680
21.4715   724
21.481    697
21.4905   715
21.5      680
21.5095   694
21.519    667
21.5285   680
21.538    666
21.5475   699
21.557    713
21.5665   691
21.576    712
21.5855   684
21.595    691
21.6045   726
21.614    684
21.6235   726
21.633    707
21.6425   698
21.652    676
21.6615   679
21.671    684
21.6805   719
21.69     678
21.6995   675
21.709    698
21.7185   704
21.728    708
21.7375   717
21.747    703
21.7565   695
21.766    665
21.7755   679
21.785    674
21.7945   688
21.804    683
21.8135   695
21.823    690
21.8325   716
21.842    742
21.8515   703
21.861    740
21.8705   698
21.88     709
21.8895   727
21.899    695
21.9085   718
21.918    728
21.9275   726
21.937    678
21.9465   766
21.956    691
21.9655   715
21.975    654
21.9845   733
21.994    715
22.0035   711
22.013    625
22.0225   694
22.032    693
22.0415   705
22.051    743
22.0605   746
22.07     760
22.0795   736
22.089    719
22.0985   735
22.108    723
22.1175   678
22.127    690
22.1365   717
22.146    733
22.1555   735
22.165    758
22.1745   717
22.184    703
22.1935   726
22.203    714
22.2125   699
22.222    733
22.2315   695
22.241    749
22.2505   668
22.26     729
22.2695   722
22.279    734
22.2885   731
22.298    736
22.3075   728
22.317    681
22.3265   717
22.336    718
22.3455   749
22.355    731
22.3645   732
22.374    738
22.3835   742
22.393    683
22.4025   688
22.412    728
22.4215   754
22.431    762
22.4405   686
22.45     732
22.4595   740
22.469    765
22.4785   722
22.488    740
22.4975   743
22.507    732
22.5165   716
22.526    697
22.5355   719
22.545    743
22.5545   758
22.564    705
22.5735   744
22.583    723
22.5925   699
22.602    769
22.6115   713
22.621    702
22.6305   777
22.64     708
22.6495   704
22.659    703
22.6685   664
22.678    746
22.6875   749
22.697    754
22.7065   714
22.716    774
22.7255   738
22.735    696
22.7445   727
22.754    725
22.7635   740
22.773    759
22.7825   728
22.792    754
22.8015   706
22.811    739
22.8205   754
22.83     718
22.8395   755
22.849    732
22.8585   709
22.868    763
22.8775   792
22.887    702
22.8965   734
22.906    754
22.9155   736
22.925    721
22.9345   768
22.944    740
22.9535   722
22.963    779
22.9725   712
22.982    740
22.9915   778
23.001    747
23.0105   755
23.02     757
23.0295   751
23.039    843
23.0485   753
23.058    733
23.0675   692
23.077    714
23.0865   741
23.096    737
23.1055   743
23.115    789
23.1245   705
23.134    770
23.1435   750
23.153    718
23.1625   749
23.172    778
23.1815   767
23.191    757
23.2005   776
23.21     733
23.2195   759
23.229    769
23.2385   738
23.248    762
23.2575   794
23.267    773
23.2765   777
23.286    750
23.2955   792
23.305    792
23.3145   774
23.324    761
23.3335   800
23.343    766
23.3525   771
23.362    737
23.3715   753
23.381    716
23.3905   806
23.4      785
23.4095   746
23.419    754
23.4285   762
23.438    782
23.4475   724
23.457    768
23.4665   750
23.476    720
23.4855   811
23.495    799
23.5045   813
23.514    840
23.5235   823
23.533    755
23.5425   774
23.552    799
23.5615   797
23.571    814
23.5805   804
23.59     795
23.5995   779
23.609    804
23.6185   799
23.628    779
23.6375   808
23.647    799
23.6565   778
23.666    794
23.6755   743
23.685    807
23.6945   733
23.704    761
23.7135   805
23.723    833
23.7325   763
23.742    770
23.7515   778
23.761    753
23.7705   838
23.78     748
23.7895   778
23.799    768
23.8085   817
23.818    813
23.8275   795
23.837    802
23.8465   828
23.856    797
23.8655   785
23.875    822
23.8845   728
23.894    795
23.9035   822
23.913    796
23.9225   805
23.932    827
23.9415   817
23.951    776
23.9605   819
23.97     775
23.9795   821
23.989    794
23.9985   807
24.008    769
24.0175   786
24.027    796
24.0365   890
24.046    847
24.0555   825
24.065    864
24.0745   747
24.084    781
24.0935   844
24.103    823
24.1125   791
24.122    803
24.1315   815
24.141    836
24.1505   866
24.16     819
24.1695   837
24.179    882
24.1885   829
24.198    804
24.2075   821
24.217    891
24.2265   831
24.236    890
24.2455   807
24.255    883
24.2645   846
24.274    836
24.2835   842
24.293    865
24.3025   844
24.312    827
24.3215   883
24.331    829
24.3405   831
24.35     836
24.3595   859
24.369    801
24.3785   842
24.388    828
24.3975   833
24.407    815
24.4165   852
24.426    846
24.4355   898
24.445    854
24.4545   854
24.464    840
24.4735   876
24.483    867
24.4925   864
24.502    891
24.5115   870
24.521    849
24.5305   906
24.54     857
24.5495   823
24.559    880
24.5685   890
24.578    873
24.5875   817
24.597    860
24.6065   866
24.616    859
24.6255   875
24.635    882
24.6445   878
24.654    868
24.6635   884
24.673    906
24.6825   868
24.692    944
24.7015   911
24.711    892
24.7205   880
24.73     919
24.7395   842
24.749    878
24.7585   896
24.768    861
24.7775   862
24.787    873
24.7965   949
24.806    951
24.8155   939
24.825    929
24.8345   889
24.844    856
24.8535   934
24.863    913
24.8725   911
24.882    916
24.8915   838
24.901    913
24.9105   926
24.92     895
24.9295   901
24.939    896
24.9485   894
24.958    926
24.9675   913
24.977    909
24.9865   894
24.996    920
25.0055   921
25.015    968
25.0245   873
25.034    931
25.0435   918
25.053    965
25.0625   898
25.072    941
25.0815   939
25.091    949
25.1005   931
25.11     899
25.1195   947
25.129    900
25.1385   930
25.148    950
25.1575   931
25.167    976
25.1765   911
25.186    979
25.1955   1004
25.205    1005
25.2145   963
25.224    917
25.2335   972
25.243    941
25.2525   990
25.262    931
25.2715   1000
25.281    958
25.2905   973
25.3      1019
25.3095   994
25.319    969
25.3285   1008
25.338    961
25.3475   947
25.357    982
25.3665   974
25.376    980
25.3855   959
25.395    1032
25.4045   930
25.414    969
25.4235   990
25.433    973
25.4425   1000
25.452    994
25.4615   1050
25.471    1024
25.4805   968
25.49     1006
25.4995   938
25.509    999
25.5185   1041
25.528    1038
25.5375   1010
25.547    980
25.5565   1039
25.566    1042
25.5755   1033
25.585    1005
25.5945   1024
25.604    1008
25.6135   961
25.623    1024
25.6325   984
25.642    1012
25.6515   1007
25.661    1005
25.6705   1032
25.68     1005
25.6895   999
25.699    1050
25.7085   1069
25.718    1044
25.7275   998
25.737    1071
25.7465   1036
25.756    1043
25.7655   1055
25.775    1012
25.7845   1128
25.794    1070
25.8035   947
25.813    1059
25.8225   1120
25.832    1034
25.8415   1065
25.851    1077
25.8605   1080
25.87     1066
25.8795   1062
25.889    1067
25.8985   1069
25.908    1102
25.9175   1097
25.927    1062
25.9365   1006
25.946    1085
25.9555   1077
25.965    1041
25.9745   1062
25.984    1079
25.9935   1032
26.003    1103
26.0125   1092
26.022    1155
26.0315   1113
26.041    1097
26.0505   1099
26.06     1087
26.0695   1102
26.079    1043
26.0885   1130
26.098    1087
26.1075   1074
26.117    1104
26.1265   1149
26.136    1139
26.1455   1144
26.155    1161
26.1645   1193
26.174    1144
26.1835   1114
26.193    1147
26.2025   1134
26.212    1152
26.2215   1140
26.231    1219
26.2405   1166
26.25     1140
26.2595   1134
26.269    1134
26.2785   1190
26.288    1172
26.2975   1128
26.307    1201
26.3165   1195
26.326    1183
26.3355   1154
26.345    1124
26.3545   1159
26.364    1145
26.3735   1136
26.383    1221
26.3925   1143
26.402    1165
26.4115   1215
26.421    1184
26.4305   1173
26.44     1124
26.4495   1193
26.459    1240
26.4685   1240
26.478    1203
26.4875   1182
26.497    1193
26.5065   1162
26.516    1204
26.5255   1208
26.535    1259
26.5445   1216
26.554    1156
26.5635   1209
26.573    1217
26.5825   1195
26.592    1259
26.6015   1280
26.611    1204
26.6205   1252
26.63     1171
26.6395   1257
26.649    1221
26.6585   1353
26.668    1176
26.6775   1235
26.687    1308
26.6965   1279
26.706    1274
26.7155   1247
26.725    1264
26.7345   1268
26.744    1270
26.7535   1251
26.763    1215
26.7725   1296
26.782    1251
26.7915   1258
26.801    1197
26.8105   1259
26.82     1276
26.8295   1224
26.839    1321
26.8485   1335
26.858    1206
26.8675   1246
26.877    1257
26.8865   1318
26.896    1294
26.9055   1271
26.915    1311
26.9245   1236
26.934    1370
26.9435   1324
26.953    1299
26.9625   1253
26.972    1260
26.9815   1288
26.991    1245
27.0005   1346
27.01     1286
27.0195   1309
27.029    1248
27.0385   1364
27.048    1353
27.0575   1349
27.067    1287
27.0765   1310
27.086    1327
27.0955   1366
27.105    1369
27.1145   1316
27.124    1314
27.1335   1268
27.143    1324
27.1525   1316
27.162    1382
27.1715   1365
27.181    1410
27.1905   1324
27.2      1302
27.2095   1359
27.219    1332
27.2285   1338
27.238    1375
27.2475   1427
27.257    1390
27.2665   1427
27.276    1370
27.2855   1426
27.295    1343
27.3045   1406
27.314    1457
27.3235   1319
27.333    1439
27.3425   1330
27.352    1296
27.3615   1350
27.371    1342
27.3805   1331
27.39     1402
27.3995   1415
27.409    1437
27.4185   1473
27.428    1447
27.4375   1344
27.447    1425
27.4565   1349
27.466    1379
27.4755   1382
27.485    1420
27.4945   1428
27.504    1404
27.5135   1489
27.523    1427
27.5325   1464
27.542    1458
27.5515   1490
27.561    1559
27.5705   1556
27.58     1530
27.5895   1560
27.599    1611
27.6085   1587
27.618    1592
27.6275   1490
27.637    1587
27.6465   1573
27.656    1567
27.6655   1513
27.675    1513
27.6845   1598
27.694    1512
27.7035   1513
27.713    1500
27.7225   1518
27.732    1494
27.7415   1541
27.751    1438
27.7605   1499
27.77     1447
27.7795   1459
27.789    1497
27.7985   1466
27.808    1405
27.8175   1435
27.827    1489
27.8365   1470
27.846    1443
27.8555   1480
27.865    1484
27.8745   1431
27.884    1483
27.8935   1397
27.903    1484
27.9125   1478
27.922    1476
27.9315   1442
27.941    1447
27.9505   1456
27.96     1512
27.9695   1486
27.979    1436
27.9885   1457
27.998    1432
28.0075   1536
28.017    1476
28.0265   1524
28.036    1515
28.0455   1509
28.055    1423
28.0645   1553
28.074    1514
28.0835   1508
28.093    1465
28.1025   1481
28.112    1473
28.1215   1478
28.131    1508
28.1405   1475
28.15     1501
28.1595   1482
28.169    1499
28.1785   1457
28.188    1507
28.1975   1582
28.207    1535
28.2165   1533
28.226    1550
28.2355   1478
28.245    1542
28.2545   1473
28.264    1509
28.2735   1549
28.283    1536
28.2925   1564
28.302    1479
28.3115   1507
28.321    1571
28.3305   1473
28.34     1456
28.3495   1543
28.359    1566
28.3685   1588
28.378    1511
28.3875   1522
28.397    1522
28.4065   1502
28.416    1500
28.4255   1567
28.435    1524
28.4445   1505
28.454    1535
28.4635   1506
28.473    1490
28.4825   1533
28.492    1597
28.5015   1544
28.511    1512
28.5205   1595
28.53     1461
28.5395   1428
28.549    1537
28.5585   1510
28.568    1525
28.5775   1531
28.587    1488
28.5965   1533
28.606    1500
28.6155   1523
28.625    1508
28.6345   1609
28.644    1560
28.6535   1520
28.663    1501
28.6725   1528
28.682    1612
28.6915   1537
28.701    1557
28.7105   1690
28.72     1655
28.7295   1665
28.739    1689
28.7485   1798
28.758    1662
28.7675   1904
28.777    1984
28.7865   2202
28.796    2466
28.8055   2759
28.815    3006
28.8245   3253
28.834    3452
28.8435   3747
28.853    3797
28.8625   3781
28.872    3632
28.8815   3628
28.891    3377
28.9005   3249
28.91     3149
28.9195   2960
28.929    2836
28.9385   2782
28.948    2488
28.9575   2266
28.967    2164
28.9765   1966
28.986    1896
28.9955   1798
29.005    1711
29.0145   1589
29.024    1616
29.0335   1618
29.043    1600
29.0525   1524
29.062    1573
29.0715   1503
29.081    1559
29.0905   1539
29.1      1550
29.1095   1587
29.119    1528
29.1285   1418
29.138    1477
29.1475   1500
29.157    1510
29.1665   1499
29.176    1432
29.1855   1462
29.195    1473
29.2045   1425
29.214    1454
29.2235   1382
29.233    1458
29.2425   1446
29.252    1471
29.2615   1427
29.271    1426
29.2805   1473
29.29     1482
29.2995   1474
29.309    1433
29.3185   1371
29.328    1415
29.3375   1416
29.347    1406
29.3565   1366
29.366    1404
29.3755   1373
29.385    1348
29.3945   1392
29.404    1421
29.4135   1481
29.423    1396
29.4325   1411
29.442    1414
29.4515   1355
29.461    1404
29.4705   1382
29.48     1438
29.4895   1387
29.499    1381
29.5085   1377
29.518    1394
29.5275   1382
29.537    1421
29.5465   1372
29.556    1387
29.5655   1411
29.575    1410
29.5845   1372
29.594    1383
29.6035   1399
29.613    1411
29.6225   1384
29.632    1402
29.6415   1342
29.651    1342
29.6605   1390
29.67     1407
29.6795   1329
29.689    1359
29.6985   1379
29.708    1335
29.7175   1412
29.727    1432
29.7365   1337
29.746    1371
29.7555   1366
29.765    1394
29.7745   1388
29.784    1344
29.7935   1319
29.803    1307
29.8125   1356
29.822    1371
29.8315   1359
29.841    1291
29.8505   1377
29.86     1270
29.8695   1405
29.879    1303
29.8885   1339
29.898    1314
29.9075   1303
29.917    1259
29.9265   1287
29.936    1354
29.9455   1325
29.955    1340
29.9645   1335
29.974    1253
29.9835   1318
29.993    1264
30.0025   1305
30.012    1314
30.0215   1363
30.031    1232
30.0405   1385
30.05     1327
30.0595   1310
30.069    1262
30.0785   1300
30.088    1305
30.0975   1272
30.107    1292
30.1165   1272
30.126    1288
30.1355   1234
30.145    1323
30.1545   1235
30.164    1292
30.1735   1270
30.183    1297
30.1925   1297
30.202    1231
30.2115   1210
30.221    1303
30.2305   1242
30.24     1221
30.2495   1277
30.259    1300
30.2685   1224
30.278    1247
30.2875   1235
30.297    1271
30.3065   1293
30.316    1216
30.3255   1243
30.335    1227
30.3445   1208
30.354    1211
30.3635   1240
30.373    1230
30.3825   1239
30.392    1237
30.4015   1265
30.411    1305
30.4205   1154
30.43     1194
30.4395   1188
30.449    1230
30.4585   1149
30.468    1225
30.4775   1199
30.487    1271
30.4965   1198
30.506    1232
30.5155   1174
30.525    1236
30.5345   1205
30.544    1226
30.5535   1233
30.563    1229
30.5725   1179
30.582    1196
30.5915   1161
30.601    1188
30.6105   1106
30.62     1224
30.6295   1145
30.639    1128
30.6485   1152
30.658    1201
30.6675   1263
30.677    1165
30.6865   1177
30.696    1075
30.7055   1180
30.715    1171
30.7245   1182
30.734    1162
30.7435   1231
30.753    1217
30.7625   1208
30.772    1090
30.7815   1152
30.791    1145
30.8005   1167
30.81     1132
30.8195   1088
30.829    1112
30.8385   1131
30.848    1149
30.8575   1115
30.867    1084
30.8765   1098
30.886    1138
30.8955   1111
30.905    1156
30.9145   1116
30.924    1130
30.9335   1087
30.943    1094
30.9525   1110
30.962    1109
30.9715   1155
30.981    1167
30.9905   1139
31        1054
31.0095   1114
31.019    1084
31.0285   1084
31.038    1117
31.0475   1060
31.057    1085
31.0665   1095
31.076    1084
31.0855   1106
31.095    1128
31.1045   1074
31.114    1159
31.1235   1070
31.133    1052
31.1425   1123
31.152    1134
31.1615   1074
31.171    1100
31.1805   1006
31.19     1147
31.1995   1116
31.209    1100
31.2185   1103
31.228    1064
31.2375   1090
31.247    1036
31.2565   1046
31.266    1099
31.2755   1039
31.285    1052
31.2945   1003
31.304    1032
31.3135   1072
31.323    991
31.3325   1075
31.342    1064
31.3515   1090
31.361    1116
31.3705   1080
31.38     1043
31.3895   1027
31.399    1046
31.4085   1064
31.418    1020
31.4275   1014
31.437    1036
31.4465   1009
31.456    1016
31.4655   1051
31.475    1043
31.4845   1047
31.494    1021
31.5035   1031
31.513    1050
31.5225   1101
31.532    1058
31.5415   1028
31.551    1027
31.5605   1021
31.57     1020
31.5795   959
31.589    980
31.5985   986
31.608    1031
31.6175   1051
31.627    1019
31.6365   997
31.646    990
31.6555   961
31.665    932
31.6745   970
31.684    1006
31.6935   1014
31.703    983
31.7125   998
31.722    981
31.7315   1000
31.741    1024
31.7505   1012
31.76     1007
31.7695   970
31.779    984
31.7885   1000
31.798    983
31.8075   1022
31.817    953
31.8265   996
31.836    989
31.8455   968
31.855    981
31.8645   984
31.874    963
31.8835   942
31.893    943
31.9025   916
31.912    965
31.9215   971
31.931    966
31.9405   982
31.95     970
31.9595   1003
31.969    951
31.9785   981
31.988    891
31.9975   1007
32.007    943
32.0165   959
32.026    1012
32.0355   952
32.045    909
32.0545   997
32.064    964
32.0735   1008
32.083    913
32.0925   958
32.102    915
32.1115   941
32.121    927
32.1305   1021
32.14     946
32.1495   936
32.159    946
32.1685   962
32.178    927
32.1875   913
32.197    911
32.2065   989
32.216    949
32.2255   983
32.235    884
32.2445   887
32.254    871
32.2635   937
32.273    959
32.2825   875
32.292    925
32.3015   948
32.311    908
32.3205   906
32.33     879
32.3395   894
32.349    911
32.3585   896
32.368    876
32.3775   927
32.387    899
32.3965   935
32.406    906
32.4155   884
32.425    920
32.4345   865
32.444    944
32.4535   909
32.463    832
32.4725   908
32.482    928
32.4915   912
32.501    918
32.5105   924
32.52     940
32.5295   921
32.539    931
32.5485   905
32.558    953
32.5675   942
32.577    900
32.5865   966
32.596    955
32.6055   908
32.615    970
32.6245   894
32.634    907
32.6435   857
32.653    891
32.6625   938
32.672    943
32.6815   898
32.691    933
32.7005   917
32.71     896
32.7195   936
32.729    912
32.7385   862
32.748    881
32.7575   879
32.767    804
32.7765   874
32.786    894
32.7955   808
32.805    855
32.8145   903
32.824    836
32.8335   880
32.843    900
32.8525   858
32.862    844
32.8715   838
32.881    822
32.8905   885
32.9      840
32.9095   826
32.919    863
32.9285   868
32.938    868
32.9475   869
32.957    868
32.9665   862
32.976    841
32.9855   908
32.995    859
33.0045   836
33.014    780
33.0235   870
33.033    838
33.0425   835
33.052    863
33.0615   876
33.071    858
33.0805   809
33.09     814
33.0995   833
33.109    866
33.1185   925
33.128    859
33.1375   835
33.147    852
33.1565   788
33.166    811
33.1755   841
33.185    920
33.1945   829
33.204    812
33.2135   834
33.223    836
33.2325   810
33.242    876
33.2515   861
33.261    862
33.2705   842
33.28     910
33.2895   902
33.299    940
33.3085   965
33.318    901
33.3275   1039
33.337    1064
33.3465   1095
33.356    1192
33.3655   1226
33.375    1311
33.3845   1245
33.394    1371
33.4035   1333
33.413    1319
33.4225   1279
33.432    1257
33.4415   1202
33.451    1236
33.4605   1270
33.47     1259
33.4795   1301
33.489    1281
33.4985   1249
33.508    1142
33.5175   1182
33.527    1160
33.5365   1168
33.546    1125
33.5555   1026
33.565    1083
33.5745   1012
33.584    986
33.5935   930
33.603    908
33.6125   907
33.622    959
33.6315   885
33.641    900
33.6505   892
33.66     857
33.6695   849
33.679    802
33.6885   831
33.698    835
33.7075   876
33.717    765
33.7265   769
33.736    834
33.7455   760
33.755    795
33.7645   789
33.774    757
33.7835   718
33.793    687
33.8025   762
33.812    773
33.8215   789
33.831    769
33.8405   751
33.85     789
33.8595   779
33.869    756
33.8785   803
33.888    785
33.8975   786
33.907    814
33.9165   751
33.926    807
33.9355   811
33.945    737
33.9545   831
33.964    770
33.9735   773
33.983    804
33.9925   742
34.002    741
34.0115   771
34.021    788
34.0305   798
34.04     751
34.0495   768
34.059    764
34.0685   711
34.078    776
34.0875   731
34.097    766
34.1065   762
34.116    743
34.1255   735
34.135    719
34.1445   781
34.154    752
34.1635   737
34.173    739
34.1825   760
34.192    739
34.2015   778
34.211    713
34.2205   732
34.23     769
34.2395   774
34.249    784
34.2585   754
34.268    747
34.2775   758
34.287    755
34.2965   718
34.306    694
34.3155   724
34.325    717
34.3345   686
34.344    745
34.3535   738
34.363    714
34.3725   734
34.382    737
34.3915   754
34.401    766
34.4105   770
34.42     678
34.4295   751
34.439    733
34.4485   777
34.458    751
34.4675   816
34.477    752
34.4865   778
34.496    713
34.5055   800
34.515    778
34.5245   762
34.534    751
34.5435   778
34.553    719
34.5625   750
34.572    742
34.5815   728
34.591    753
34.6005   741
34.61     755
34.6195   715
34.629    775
34.6385   716
34.648    757
34.6575   706
34.667    716
34.6765   777
34.686    743
34.6955   717
34.705    727
34.7145   714
34.724    723
34.7335   765
34.743    764
34.7525   702
34.762    749
34.7715   745
34.781    747
34.7905   731
34.8      673
34.8095   744
34.819    735
34.8285   738
34.838    698
34.8475   804
34.857    691
34.8665   754
34.876    728
34.8855   669
34.895    669
34.9045   716
34.914    740
34.9235   652
34.933    717
34.9425   704
34.952    736
34.9615   684
34.971    775
34.9805   696
34.99     696
34.9995   676
35.009    669
35.0185   740
35.028    691
35.0375   683
35.047    690
35.0565   743
35.066    674
35.0755   699
35.085    690
35.0945   739
35.104    696
35.1135   701
35.123    684
35.1325   717
35.142    741
35.1515   685
35.161    738
35.1705   660
35.18     697
35.1895   670
35.199    682
35.2085   670
35.218    662
35.2275   699
35.237    653
35.2465   704
35.256    656
35.2655   738
35.275    670
35.2845   693
35.294    685
35.3035   679
35.313    624
35.3225   634
35.332    672
35.3415   655
35.351    643
35.3605   673
35.37     655
35.3795   654
35.389    703
35.3985   661
35.408    710
35.4175   727
35.427    691
35.4365   676
35.446    665
35.4555   681
35.465    717
35.4745   707
35.484    691
35.4935   644
35.503    691
35.5125   692
35.522    633
35.5315   680
35.541    670
35.5505   698
35.56     684
35.5695   645
35.579    652
35.5885   735
35.598    642
35.6075   657
35.617    650
35.6265   668
35.636    647
35.6455   678
35.655    633
35.6645   730
35.674    715
35.6835   656
35.693    665
35.7025   678
35.712    709
35.7215   637
35.731    685
35.7405   651
35.75     675
35.7595   672
35.769    686
35.7785   681
35.788    687
35.7975   691
35.807    586
35.8165   628
35.826    627
35.8355   642
35.845    644
35.8545   630
35.864    628
35.8735   703
35.883    647
35.8925   663
35.902    664
35.9115   682
35.921    662
35.9305   679
35.94     609
35.9495   664
35.959    646
35.9685   689
35.978    641
35.9875   653
35.997    588
36.0065   674
36.016    641
36.0255   713
36.035    679
36.0445   657
36.054    631
36.0635   651
36.073    640
36.0825   620
36.092    614
36.1015   633
36.111    638
36.1205   686
36.13     642
36.1395   668
36.149    638
36.1585   698
36.168    648
36.1775   586
36.187    626
36.1965   687
36.206    650
36.2155   656
36.225    621
36.2345   631
36.244    641
36.2535   677
36.263    644
36.2725   588
36.282    660
36.2915   665
36.301    647
36.3105   635
36.32     667
36.3295   628
36.339    658
36.3485   651
36.358    683
36.3675   662
36.377    633
36.3865   634
36.396    673
36.4055   614
36.415    664
36.4245   690
36.434    686
36.4435   681
36.453    657
36.4625   684
36.472    683
36.4815   745
36.491    715
36.5005   723
36.51     728
36.5195   746
36.529    706
36.5385   754
36.548    738
36.5575   763
36.567    752
36.5765   730
36.586    719
36.5955   745
36.605    698
36.6145   732
36.624    735
36.6335   732
36.643    711
36.6525   705
36.662    664
36.6715   732
36.681    692
36.6905   682
36.7      682
36.7095   695
36.719    632
36.7285   619
36.738    681
36.7475   660
36.757    651
36.7665   624
36.776    660
36.7855   696
36.795    709
36.8045   653
36.814    633
36.8235   659
36.833    656
36.8425   674
36.852    601
36.8615   647
36.871    659
36.8805   618
36.89     596
36.8995   659
36.909    619
36.9185   648
36.928    616
36.9375   639
36.947    619
36.9565   622
36.966    609
36.9755   609
36.985    602
36.9945   618
37.004    669
37.0135   617
37.023    624
37.0325   623
37.042    637
37.0515   599
37.061    640
37.0705   636
37.08     638
37.0895   646
37.099    598
37.1085   616
37.118    624
37.1275   596
37.137    580
37.1465   627
37.156    618
37.1655   620
37.175    655
37.1845   618
37.194    608
37.2035   587
37.213    605
37.2225   590
37.232    586
37.2415   591
37.251    605
37.2605   607
37.27     622
37.2795   592
37.289    630
37.2985   647
37.308    549
37.3175   644
37.327    615
37.3365   588
37.346    580
37.3555   590
37.365    578
37.3745   595
37.384    540
37.3935   611
37.403    630
37.4125   596
37.422    609
37.4315   597
37.441    638
37.4505   640
37.46     611
37.4695   586
37.479    630
37.4885   639
37.498    571
37.5075   617
37.517    564
37.5265   613
37.536    607
37.5455   606
37.555    627
37.5645   572
37.574    612
37.5835   582
37.593    626
37.6025   602
37.612    601
37.6215   638
37.631    574
37.6405   607
37.65     589
37.6595   578
37.669    618
37.6785   596
37.688    616
37.6975   571
37.707    608
37.7165   594
37.726    550
37.7355   610
37.745    589
37.7545   565
37.764    631
37.7735   598
37.783    572
37.7925   576
37.802    605
37.8115   571
37.821    635
37.8305   612
37.84     579
37.8495   633
37.859    590
37.8685   584
37.878    590
37.8875   656
37.897    578
37.9065   635
37.916    597
37.9255   600
37.935    605
37.9445   587
37.954    574
37.9635   614
37.973    546
37.9825   601
37.992    615
38.0015   658
38.011    565
38.0205   613
38.03     642
38.0395   602
38.049    610
38.0585   588
38.068    534
38.0775   596
38.087    597
38.0965   606
38.106    600
38.1155   597
38.125    595
38.1345   592
38.144    637
38.1535   550
38.163    571
38.1725   612
38.182    569
38.1915   612
38.201    589
38.2105   619
38.22     607
38.2295   563
38.239    599
38.2485   581
38.258    607
38.2675   622
38.277    569
38.2865   601
38.296    597
38.3055   584
38.315    643
38.3245   580
38.334    614
38.3435   664
38.353    610
38.3625   587
38.372    610
38.3815   643
38.391    568
38.4005   577
38.41     578
38.4195   595
38.429    607
38.4385   658
38.448    594
38.4575   597
38.467    578
38.4765   624
38.486    564
38.4955   598
38.505    604
38.5145   561
38.524    594
38.5335   581
38.543    646
38.5525   595
38.562    610
38.5715   550
38.581    589
38.5905   565
38.6      626
38.6095   567
38.619    643
38.6285   564
38.638    615
38.6475   641
38.657    577
38.6665   597
38.676    601
38.6855   558
38.695    634
38.7045   567
38.714    611
38.7235   643
38.733    586
38.7425   628
38.752    595
38.7615   599
38.771    556
38.7805   609
38.79     598
38.7995   616
38.809    614
38.8185   619
38.828    581
38.8375   601
38.847    623
38.8565   634
38.866    594
38.8755   609
38.885    583
38.8945   592
38.904    653
38.9135   615
38.923    636
38.9325   552
38.942    564
38.9515   574
38.961    613
38.9705   610
38.98     599
38.9895   611
38.999    622
39.0085   572
39.018    635
39.0275   591
39.037    607
39.0465   615
39.056    588
39.0655   572
39.075    614
39.0845   625
39.094    590
39.1035   587
39.113    598
39.1225   597
39.132    614
39.1415   559
39.151    591
39.1605   626
39.17     602
39.1795   628
39.189    630
39.1985   591
39.208    618
39.2175   566
39.227    643
39.2365   600
39.246    596
39.2555   597
39.265    633
39.2745   587
39.284    624
39.2935   612
39.303    584
39.3125   578
39.322    633
39.3315   611
39.341    582
39.3505   620
39.36     552
39.3695   606
39.379    611
39.3885   592
39.398    593
39.4075   592
39.417    632
39.4265   626
39.436    557
39.4455   608
39.455    614
39.4645   589
39.474    623
39.4835   589
39.493    584
39.5025   634
39.512    561
39.5215   626
39.531    635
39.5405   608
39.55     658
39.5595   592
39.569    632
39.5785   567
39.588    594
39.5975   626
39.607    631
39.6165   657
39.626    648
39.6355   665
39.645    611
39.6545   582
39.664    655
39.6735   644
39.683    631
39.6925   611
39.702    648
39.7115   606
39.721    639
39.7305   652
39.74     624
39.7495   599
39.759    597
39.7685   558
39.778    595
39.7875   583
39.797    651
39.8065   599
39.816    650
39.8255   638
39.835    642
39.8445   584
39.854    610
39.8635   605
39.873    571
39.8825   614
39.892    621
39.9015   598
39.911    619
39.9205   637
39.93     594
39.9395   641
39.949    605
39.9585   647
39.968    596
39.9775   624
39.987    627
39.9965   591
40.006    616
40.0155   639
40.025    613
40.0345   585
40.044    612
40.0535   613
40.063    609
40.0725   622
40.082    602
40.0915   611
40.101    612
40.1105   614
40.12     641
40.1295   603
40.139    647
40.1485   606
40.158    630
40.1675   601
40.177    573
40.1865   629
40.196    626
40.2055   650
40.215    621
40.2245   650
40.234    609
40.2435   628
40.253    639
40.2625   640
40.272    584
40.2815   642
40.291    540
40.3005   625
40.31     611
40.3195   605
40.329    611
40.3385   631
40.348    581
40.3575   647
40.367    635
40.3765   620
40.386    628
40.3955   635
40.405    627
40.4145   619
40.424    587
40.4335   622
40.443    618
40.4525   646
40.462    637
40.4715   648
40.481    631
40.4905   652
40.5      621
40.5095   617
40.519    631
40.5285   642
40.538    613
40.5475   679
40.557    628
40.5665   611
40.576    653
40.5855   636
40.595    591
40.6045   652
40.614    623
40.6235   632
40.633    625
40.6425   625
40.652    603
40.6615   664
40.671    600
40.6805   642
40.69     613
40.6995   656
40.709    648
40.7185   614
40.728    598
40.7375   626
40.747    653
40.7565   622
40.766    641
40.7755   654
40.785    605
40.7945   614
40.804    584
40.8135   625
40.823    643
40.8325   617
40.842    652
40.8515   652
40.861    607
40.8705   628
40.88     601
40.8895   584
40.899    603
40.9085   631
40.918    645
40.9275   647
40.937    598
40.9465   621
40.956    635
40.9655   634
40.975    645
40.9845   624
40.994    644
41.0035   644
41.013    667
41.0225   628
41.032    683
41.0415   640
41.051    636
41.0605   588
41.07     639
41.0795   596
41.089    579
41.0985   611
41.108    686
41.1175   638
41.127    636
41.1365   651
41.146    644
41.1555   649
41.165    682
41.1745   649
41.184    629
41.1935   669
41.203    622
41.2125   640
41.222    631
41.2315   636
41.241    634
41.2505   635
41.26     594
41.2695   635
41.279    652
41.2885   644
41.298    627
41.3075   643
41.317    641
41.3265   589
41.336    594
41.3455   634
41.355    657
41.3645   600
41.374    643
41.3835   644
41.393    650
41.4025   629
41.412    642
41.4215   649
41.431    655
41.4405   635
41.45     629
41.4595   614
41.469    590
41.4785   649
41.488    639
41.4975   647
41.507    654
41.5165   612
41.526    601
41.5355   604
41.545    663
41.5545   665
41.564    608
41.5735   640
41.583    618
41.5925   632
41.602    634
41.6115   623
41.621    657
41.6305   633
41.64     662
41.6495   618
41.659    595
41.6685   645
41.678    648
41.6875   663
41.697    640
41.7065   630
41.716    632
41.7255   628
41.735    657
41.7445   613
41.754    655
41.7635   641
41.773    642
41.7825   613
41.792    636
41.8015   641
41.811    636
41.8205   585
41.83     643
41.8395   606
41.849    621
41.8585   635
41.868    628
41.8775   660
41.887    650
41.8965   661
41.906    682
41.9155   643
41.925    641
41.9345   620
41.944    710
41.9535   629
41.963    669
41.9725   657
41.982    640
41.9915   658
42.001    626
42.0105   687
42.02     626
42.0295   652
42.039    677
42.0485   642
42.058    657
42.0675   588
42.077    633
42.0865   673
42.096    642
42.1055   636
42.115    680
42.1245   668
42.134    656
42.1435   647
42.153    636
42.1625   688
42.172    594
42.1815   705
42.191    599
42.2005   624
42.21     653
42.2195   650
42.229    669
42.2385   641
42.248    692
42.2575   703
42.267    689
42.2765   636
42.286    684
42.2955   684
42.305    682
42.3145   665
42.324    641
42.3335   701
42.343    659
42.3525   717
42.362    691
42.3715   686
42.381    642
42.3905   659
42.4      652
42.4095   683
42.419    629
42.4285   705
42.438    666
42.4475   698
42.457    676
42.4665   715
42.476    675
42.4855   640
42.495    616
42.5045   649
42.514    614
42.5235   643
42.533    648
42.5425   651
42.552    658
42.5615   680
42.571    651
42.5805   674
42.59     615
42.5995   694
42.609    657
42.6185   627
42.628    598
42.6375   724
42.647    688
42.6565   662
42.666    664
42.6755   676
42.685    633
42.6945   671
42.704    611
42.7135   627
42.723    649
42.7325   645
42.742    648
42.7515   612
42.761    661
42.7705   668
42.78     626
42.7895   607
42.799    605
42.8085   617
42.818    648
42.8275   671
42.837    700
42.8465   656
42.856    631
42.8655   675
42.875    621
42.8845   679
42.894    643
42.9035   691
42.913    689
42.9225   639
42.932    641
42.9415   644
42.951    602
42.9605   648
42.97     645
42.9795   683
42.989    628
42.9985   663
43.008    644
43.0175   644
43.027    636
43.0365   662
43.046    647
43.0555   632
43.065    624
43.0745   636
43.084    617
43.0935   635
43.103    676
43.1125   684
43.122    676
43.1315   649
43.141    629
43.1505   684
43.16     634
43.1695   621
43.179    609
43.1885   608
43.198    666
43.2075   647
43.217    610
43.2265   606
43.236    697
43.2455   621
43.255    696
43.2645   675
43.274    624
43.2835   657
43.293    651
43.3025   647
43.312    649
43.3215   671
43.331    626
43.3405   654
43.35     673
43.3595   624
43.369    662
43.3785   636
43.388    662
43.3975   621
43.407    627
43.4165   656
43.426    667
43.4355   632
43.445    662
43.4545   640
43.464    675
43.4735   633
43.483    638
43.4925   656
43.502    657
43.5115   698
43.521    675
43.5305   645
43.54     653
43.5495   689
43.559    634
43.5685   689
43.578    627
43.5875   662
43.597    668
43.6065   640
43.616    633
43.6255   623
43.635    661
43.6445   648
43.654    641
43.6635   661
43.673    682
43.6825   620
43.692    646
43.7015   633
43.711    687
43.7205   703
43.73     655
43.7395   665
43.749    706
43.7585   669
43.768    684
43.7775   662
43.787    652
43.7965   684
43.806    672
43.8155   606
43.825    723
43.8345   703
43.844    703
43.8535   663
43.863    705
43.8725   678
43.882    659
43.8915   680
43.901    653
43.9105   674
43.92     701
43.9295   700
43.939    701
43.9485   647
43.958    663
43.9675   685
43.977    681
43.9865   698
43.996    683
44.0055   733
44.015    674
44.0245   712
44.034    709
44.0435   664
44.053    699
44.0625   657
44.072    689
44.0815   701
44.091    687
44.1005   695
44.11     697
44.1195   658
44.129    665
44.1385   637
44.148    672
44.1575   630
44.167    680
44.1765   652
44.186    683
44.1955   680
44.205    645
44.2145   683
44.224    672
44.2335   620
44.243    625
44.2525   642
44.262    621
44.2715   674
44.281    611
44.2905   677
44.3      671
44.3095   634
44.319    632
44.3285   640
44.338    676
44.3475   633
44.357    666
44.3665   642
44.376    635
44.3855   643
44.395    652
44.4045   631
44.414    688
44.4235   631
44.433    701
44.4425   652
44.452    644
44.4615   678
44.471    669
44.4805   637
44.49     601
44.4995   672
44.509    664
44.5185   674
44.528    676
44.5375   679
44.547    656
44.5565   651
44.566    683
44.5755   644
44.585    655
44.5945   632
44.604    669
44.6135   684
44.623    701
44.6325   629
44.642    682
44.6515   645
44.661    587
44.6705   677
44.68     617
44.6895   657
44.699    683
44.7085   671
44.718    679
44.7275   592
44.737    594
44.7465   626
44.756    697
44.7655   650
44.775    686
44.7845   698
44.794    661
44.8035   670
44.813    649
44.8225   638
44.832    636
44.8415   685
44.851    665
44.8605   676
44.87     680
44.8795   668
44.889    734
44.8985   682
44.908    634
44.9175   666
44.927    668
44.9365   653
44.946    668
44.9555   693
44.965    721
44.9745   620
44.984    660
44.9935   615
45.003    669
45.0125   664
45.022    684
45.0315   665
45.041    653
45.0505   669
45.06     688
45.0695   638
45.079    626
45.0885   679
45.098    654
45.1075   631
45.117    684
45.1265   670
45.136    659
45.1455   659
45.155    703
45.1645   678
45.174    665
45.1835   654
45.193    690
45.2025   661
45.212    650
45.2215   624
45.231    621
45.2405   646
45.25     645
45.2595   616
45.269    659
45.2785   666
45.288    632
45.2975   652
45.307    648
45.3165   672
45.326    655
45.3355   607
45.345    666
45.3545   664
45.364    670
45.3735   650
45.383    654
45.3925   636
45.402    632
45.4115   657
45.421    606
45.4305   691
45.44     670
45.4495   704
45.459    693
45.4685   656
45.478    638
45.4875   626
45.497    661
45.5065   732
45.516    658
45.5255   688
45.535    710
45.5445   606
45.554    642
45.5635   626
45.573    633
45.5825   667
45.592    669
45.6015   652
45.611    663
45.6205   687
45.63     653
45.6395   647
45.649    670
45.6585   696
45.668    634
45.6775   669
45.687    703
45.6965   689
45.706    676
45.7155   664
45.725    655
45.7345   684
45.744    664
45.7535   661
45.763    681
45.7725   651
45.782    700
45.7915   665
45.801    666
45.8105   681
45.82     662
45.8295   692
45.839    720
45.8485   639
45.858    659
45.8675   714
45.877    677
45.8865   672
45.896    630
45.9055   660
45.915    650
45.9245   684
45.934    639
45.9435   648
45.953    666
45.9625   673
45.972    663
45.9815   676
45.991    684
46.0005   628
46.01     669
46.0195   674
46.029    617
46.0385   722
46.048    700
46.0575   667
46.067    690
46.0765   662
46.086    673
46.0955   677
46.105    699
46.1145   665
46.124    693
46.1335   647
46.143    622
46.1525   649
46.162    658
46.1715   652
46.181    631
46.1905   693
46.2      682
46.2095   630
46.219    712
46.2285   686
46.238    657
46.2475   681
46.257    667
46.2665   689
46.276    659
46.2855   640
46.295    706
46.3045   709
46.314    646
46.3235   700
46.333    713
46.3425   673
46.352    636
46.3615   623
46.371    657
46.3805   614
46.39     725
46.3995   683
46.409    644
46.4185   716
46.428    659
46.4375   684
46.447    704
46.4565   697
46.466    702
46.4755   693
46.485    689
46.4945   645
46.504    702
46.5135   677
46.523    661
46.5325   706
46.542    691
46.5515   667
46.561    659
46.5705   662
46.58     687
46.5895   678
46.599    674
46.6085   681
46.618    661
46.6275   657
46.637    679
46.6465   648
46.656    711
46.6655   670
46.675    639
46.6845   699
46.694    700
46.7035   714
46.713    667
46.7225   686
46.732    679
46.7415   660
46.751    650
46.7605   666
46.77     685
46.7795   645
46.789    705
46.7985   663
46.808    677
46.8175   634
46.827    677
46.8365   654
46.846    682
46.8555   693
46.865    737
46.8745   647
46.884    681
46.8935   690
46.903    710
46.9125   712
46.922    689
46.9315   705
46.941    715
46.9505   653
46.96     656
46.9695   685
46.979    704
46.9885   665
46.998    686
47.0075   667
47.017    695
47.0265   678
47.036    713
47.0455   665
47.055    676
47.0645   708
47.074    701
47.0835   651
47.093    691
47.1025   661
47.112    675
47.1215   601
47.131    641
47.1405   653
47.15     703
47.1595   667
47.169    665
47.1785   632
47.188    707
47.1975   670
47.207    649
47.2165   702
47.226    647
47.2355   698
47.245    711
47.2545   665
47.264    691
47.2735   656
47.283    670
47.2925   696
47.302    677
47.3115   675
47.321    690
47.3305   680
47.34     701
47.3495   675
47.359    721
47.3685   639
47.378    671
47.3875   692
47.397    689
47.4065   649
47.416    637
47.4255   748
47.435    690
47.4445   677
47.454    669
47.4635   697
47.473    682
47.4825   613
47.492    726
47.5015   675
47.511    678
47.5205   657
47.53     716
47.5395   667
47.549    656
47.5585   702
47.568    681
47.5775   668
47.587    687
47.5965   698
47.606    679
47.6155   646
47.625    696
47.6345   652
47.644    722
47.6535   638
47.663    683
47.6725   647
47.682    705
47.6915   682
47.701    684
47.7105   652
47.72     708
47.7295   687
47.739    627
47.7485   759
47.758    711
47.7675   679
47.777    682
47.7865   658
47.796    671
47.8055   732
47.815    699
47.8245   715
47.834    754
47.8435   736
47.853    769
47.8625   824
47.872    806
47.8815   850
47.891    819
47.9005   921
47.91     918
47.9195   999
47.929    988
47.9385   1058
47.948    1017
47.9575   1092
47.967    1076
47.9765   1161
47.986    1199
47.9955   1182
48.005    1218
48.0145   1178
48.024    1227
48.0335   1162
48.043    1197
48.0525   1158
48.062    1071
48.0715   1126
48.081    1008
48.0905   1048
48.1      1024
48.1095   1031
48.119    988
48.1285   1012
48.138    988
48.1475   936
48.157    923
48.1665   831
48.176    910
48.1855   868
48.195    837
48.2045   809
48.214    768
48.2235   783
48.233    733
48.2425   746
48.252    758
48.2615   721
48.271    695
48.2805   661
48.29     732
48.2995   685
48.309    692
48.3185   675
48.328    771
48.3375   702
48.347    700
48.3565   643
48.366    669
48.3755   717
48.385    676
48.3945   657
48.404    722
48.4135   728
48.423    699
48.4325   661
48.442    674
48.4515   643
48.461    710
48.4705   676
48.48     733
48.4895   722
48.499    653
48.5085   675
48.518    676
48.5275   660
48.537    702
48.5465   707
48.556    700
48.5655   695
48.575    654
48.5845   682
48.594    676
48.6035   697
48.613    705
48.6225   719
48.632    653
48.6415   675
48.651    636
48.6605   690
48.67     684
48.6795   715
48.689    698
48.6985   699
48.708    631
48.7175   668
48.727    654
48.7365   697
48.746    683
48.7555   680
48.765    637
48.7745   712
48.784    687
48.7935   662
48.803    724
48.8125   676
48.822    673
48.8315   708
48.841    638
48.8505   688
48.86     701
48.8695   645
48.879    653
48.8885   698
48.898    669
48.9075   667
48.917    662
48.9265   689
48.936    673
48.9455   678
48.955    672
48.9645   702
48.974    674
48.9835   694
48.993    632
49.0025   682
49.012    675
49.0215   709
49.031    645
49.0405   613
49.05     630
49.0595   708
49.069    709
49.0785   701
49.088    672
49.0975   733
49.107    671
49.1165   631
49.126    701
49.1355   694
49.145    635
49.1545   632
49.164    668
49.1735   665
49.183    700
49.1925   704
49.202    678
49.2115   670
49.221    686
49.2305   684
49.24     650
49.2495   650
49.259    629
49.2685   631
49.278    639
49.2875   711
49.297    667
49.3065   669
49.316    659
49.3255   664
49.335    704
49.3445   680
49.354    695
49.3635   667
49.373    720
49.3825   638
49.392    654
49.4015   646
49.411    664
49.4205   677
49.43     670
49.4395   735
49.449    614
49.4585   702
49.468    648
49.4775   691
49.487    693
49.4965   680
49.506    644
49.5155   704
49.525    667
49.5345   683
49.544    661
49.5535   639
49.563    691
49.5725   687
49.582    698
49.5915   705
49.601    701
49.6105   691
49.62     663
49.6295   673
49.639    723
49.6485   722
49.658    683
49.6675   691
49.677    684
49.6865   609
49.696    637
49.7055   678
49.715    628
49.7245   673
49.734    703
49.7435   646
49.753    660
49.7625   621
49.772    645
49.7815   651
49.791    685
49.8005   663
49.81     721
49.8195   676
49.829    655
49.8385   694
49.848    657
49.8575   602
49.867    681
49.8765   694
49.886    649
49.8955   696
49.905    639
49.9145   688
49.924    717
49.9335   707
49.943    662
49.9525   667
49.962    632
49.9715   690
49.981    699
49.9905   632
50        725
50.0095   681
50.019    657
50.0285   705
50.038    630
50.0475   655
50.057    657
50.0665   704
50.076    681
50.0855   674
50.095    636
50.1045   651
50.114    644
50.1235   659
50.133    679
50.1425   653
50.152    666
50.1615   660
50.171    667
50.1805   707
50.19     679
50.1995   667
50.209    668
50.2185   687
50.228    695
50.2375   682
50.247    714
50.2565   739
50.266    699
50.2755   677
50.285    686
50.2945   673
50.304    668
50.3135   718
50.323    681
50.3325   724
50.342    678
50.3515   693
50.361    778
50.3705   672
50.38     716
50.3895   699
50.399    708
50.4085   739
50.418    675
50.4275   715
50.437    652
50.4465   719
50.456    626
50.4655   716
50.475    694
50.4845   667
50.494    702
50.5035   679
50.513    667
50.5225   706
50.532    702
50.5415   649
50.551    706
50.5605   686
50.57     652
50.5795   659
50.589    682
50.5985   697
50.608    674
50.6175   680
50.627    677
50.6365   657
50.646    633
50.6555   656
50.665    653
50.6745   670
50.684    669
50.6935   603
50.703    651
50.7125   671
50.722    673
50.7315   652
50.741    641
50.7505   665
50.76     690
50.7695   706
50.779    652
50.7885   690
50.798    637
50.8075   611
50.817    702
50.8265   645
50.836    641
50.8455   658
50.855    670
50.8645   676
50.874    642
50.8835   686
50.893    690
50.9025   682
50.912    683
50.9215   670
50.931    635
50.9405   694
50.95     664
50.9595   681
50.969    717
50.9785   639
50.988    642
50.9975   660
51.007    673
51.0165   674
51.026    637
51.0355   654
51.045    637
51.0545   696
51.064    647
51.0735   651
51.083    652
51.0925   682
51.102    667
51.1115   636
51.121    679
51.1305   629
51.14     666
51.1495   651
51.159    631
51.1685   652
51.178    666
51.1875   630
51.197    630
51.2065   612
51.216    688
51.2255   694
51.235    637
51.2445   669
51.254    658
51.2635   703
51.273    628
51.2825   705
51.292    635
51.3015   686
51.311    650
51.3205   691
51.33     693
51.3395   654
51.349    667
51.3585   649
51.368    634
51.3775   667
51.387    670
51.3965   685
51.406    651
51.4155   675
51.425    648
51.4345   695
51.444    687
51.4535   630
51.463    642
51.4725   677
51.482    687
51.4915   684
51.501    690
51.5105   686
51.52     649
51.5295   642
51.539    662
51.5485   656
51.558    695
51.5675   664
51.577    654
51.5865   635
51.596    656
51.6055   615
51.615    676
51.6245   667
51.634    705
51.6435   705
51.653    648
51.6625   647
51.672    674
51.6815   711
51.691    692
51.7005   657
51.71     704
51.7195   641
51.729    692
51.7385   686
51.748    677
51.7575   621
51.767    713
51.7765   648
51.786    663
51.7955   635
51.805    631
51.8145   678
51.824    630
51.8335   657
51.843    721
51.8525   679
51.862    653
51.8715   618
51.881    676
51.8905   650
51.9      631
51.9095   646
51.919    690
51.9285   668
51.938    685
51.9475   692
51.957    635
51.9665   608
51.976    654
51.9855   665
51.995    647
52.0045   633
52.014    691
52.0235   729
52.033    688
52.0425   678
52.052    665
52.0615   647
52.071    707
52.0805   669
52.09     666
52.0995   595
52.109    667
52.1185   663
52.128    666
52.1375   660
52.147    683
52.1565   682
52.166    704
52.1755   682
52.185    648
52.1945   647
52.204    685
52.2135   677
52.223    686
52.2325   693
52.242    658
52.2515   699
52.261    644
52.2705   654
52.28     674
52.2895   632
52.299    688
52.3085   630
52.318    666
52.3275   606
52.337    689
52.3465   653
52.356    654
52.3655   684
52.375    647
52.3845   630
52.394    695
52.4035   673
52.413    654
52.4225   627
52.432    646
52.4415   654
52.451    660
52.4605   646
52.47     667
52.4795   659
52.489    648
52.4985   651
52.508    642
52.5175   628
52.527    692
52.5365   646
52.546    665
52.5555   646
52.565    682
52.5745   649
52.584    685
52.5935   650
52.603    670
52.6125   606
52.622    666
52.6315   679
52.641    627
52.6505   675
52.66     643
52.6695   678
52.679    684
52.6885   667
52.698    613
52.7075   643
52.717    632
52.7265   672
52.736    595
52.7455   656
52.755    657
52.7645   623
52.774    689
52.7835   649
52.793    672
52.8025   632
52.812    630
52.8215   639
52.831    660
52.8405   579
52.85     658
52.8595   681
52.869    656
52.8785   653
52.888    662
52.8975   632
52.907    678
52.9165   640
52.926    620
52.9355   626
52.945    666
52.9545   615
52.964    598
52.9735   657
52.983    668
52.9925   615
53.002    613
53.0115   637
53.021    644
53.0305   617
53.04     659
53.0495   623
53.059    673
53.0685   641
53.078    632
53.0875   671
53.097    622
53.1065   640
53.116    636
53.1255   636
53.135    659
53.1445   654
53.154    643
53.1635   637
53.173    635
53.1825   663
53.192    631
53.2015   650
53.211    664
53.2205   666
53.23     628
53.2395   648
53.249    608
53.2585   657
53.268    650
53.2775   708
53.287    641
53.2965   648
53.306    635
53.3155   699
53.325    683
53.3345   613
53.344    633
53.3535   610
53.363    586
53.3725   668
53.382    631
53.3915   621
53.401    612
53.4105   602
53.42     621
53.4295   641
53.439    647
53.4485   640
53.458    619
53.4675   683
53.477    636
53.4865   582
53.496    641
53.5055   625
53.515    615
53.5245   612
53.534    624
53.5435   672
53.553    683
53.5625   663
53.572    615
53.5815   635
53.591    688
53.6005   650
53.61     667
53.6195   646
53.629    621
53.6385   661
53.648    669
53.6575   628
53.667    620
53.6765   641
53.686    646
53.6955   649
53.705    656
53.7145   661
53.724    582
53.7335   618
53.743    611
53.7525   617
53.762    643
53.7715   606
53.781    599
53.7905   622
53.8      643
53.8095   668
53.819    623
53.8285   620
53.838    607
53.8475   614
53.857    638
53.8665   663
53.876    603
53.8855   601
53.895    653
53.9045   587
53.914    593
53.9235   610
53.933    623
53.9425   612
53.952    636
53.9615   632
53.971    607
53.9805   651
53.99     607
53.9995   641
54.009    596
54.0185   604
54.028    583
54.0375   623
54.047    620
54.0565   613
54.066    651
54.0755   632
54.085    576
54.0945   619
54.104    667
54.1135   638
54.123    599
54.1325   619
54.142    662
54.1515   633
54.161    655
54.1705   599
54.18     556
54.1895   626
54.199    647
54.2085   606
54.218    626
54.2275   641
54.237    656
54.2465   631
54.256    667
54.2655   632
54.275    608
54.2845   597
54.294    666
54.3035   622
54.313    593
54.3225   616
54.332    629
54.3415   657
54.351    641
54.3605   656
54.37     626
54.3795   659
54.389    638
54.3985   605
54.408    607
54.4175   614
54.427    617
54.4365   624
54.446    643
54.4555   619
54.465    623
54.4745   607
54.484    606
54.4935   616
54.503    600
54.5125   611
54.522    645
54.5315   626
54.541    644
54.5505   593
54.56     619
54.5695   630
54.579    647
54.5885   662
54.598    631
54.6075   607
54.617    614
54.6265   631
54.636    642
54.6455   635
54.655    652
54.6645   631
54.674    627
54.6835   604
54.693    603
54.7025   617
54.712    675
54.7215   615
54.731    642
54.7405   638
54.75     622
54.7595   658
54.769    673
54.7785   626
54.788    600
54.7975   581
54.807    591
54.8165   671
54.826    634
54.8355   620
54.845    650
54.8545   682
54.864    621
54.8735   676
54.883    666
54.8925   650
54.902    650
54.9115   644
54.921    678
54.9305   649
54.94     651
54.9495   647
54.959    711
54.9685   596
54.978    644
54.9875   660
54.997    656
55.0065   664
55.016    691
55.0255   676
55.035    662
55.0445   669
55.054    696
55.0635   654
55.073    615
55.0825   599
55.092    628
55.1015   590
55.111    672
55.1205   629
55.13     612
55.1395   661
55.149    596
55.1585   620
55.168    604
55.1775   638
55.187    627
55.1965   646
55.206    634
55.2155   609
55.225    621
55.2345   661
55.244    583
55.2535   631
55.263    628
55.2725   611
55.282    603
55.2915   585
55.301    615
55.3105   622
55.32     607
55.3295   636
55.339    641
55.3485   642
55.358    609
55.3675   608
55.377    638
55.3865   595
55.396    610
55.4055   591
55.415    570
55.4245   570
55.434    565
55.4435   627
55.453    632
55.4625   595
55.472    592
55.4815   612
55.491    638
55.5005   638
55.51     636
55.5195   568
55.529    609
55.5385   612
55.548    626
55.5575   627
55.567    579
55.5765   616
55.586    583
55.5955   623
55.605    588
55.6145   627
55.624    607
55.6335   588
55.643    614
55.6525   623
55.662    638
55.6715   602
55.681    618
55.6905   565
55.7      578
55.7095   616
55.719    602
55.7285   585
55.738    635
55.7475   628
55.757    576
55.7665   606
55.776    618
55.7855   614
55.795    605
55.8045   631
55.814    620
55.8235   615
55.833    611
55.8425   599
55.852    596
55.8615   618
55.871    540
55.8805   607
55.89     625
55.8995   638
55.909    602
55.9185   614
55.928    572
55.9375   645
55.947    591
55.9565   623
55.966    612
55.9755   593
55.985    597
55.9945   617
56.004    610
56.0135   653
56.023    583
56.0325   621
56.042    610
56.0515   586
56.061    642
56.0705   639
56.08     602
56.0895   602
56.099    621
56.1085   607
56.118    640
56.1275   569
56.137    568
56.1465   617
56.156    580
56.1655   646
56.175    650
56.1845   632
56.194    598
56.2035   600
56.213    614
56.2225   592
56.232    608
56.2415   632
56.251    624
56.2605   610
56.27     619
56.2795   621
56.289    620
56.2985   613
56.308    593
56.3175   597
56.327    651
56.3365   593
56.346    663
56.3555   617
56.365    625
56.3745   654
56.384    682
56.3935   602
56.403    587
56.4125   606
56.422    620
56.4315   588
56.441    619
56.4505   619
56.46     584
56.4695   650
56.479    603
56.4885   617
56.498    639
56.5075   616
56.517    636
56.5265   591
56.536    605
56.5455   618
56.555    642
56.5645   605
56.574    577
56.5835   586
56.593    618
56.6025   631
56.612    592
56.6215   637
56.631    646
56.6405   596
56.65     604
56.6595   618
56.669    655
56.6785   633
56.688    660
56.6975   594
56.707    555
56.7165   635
56.726    643
56.7355   643
56.745    612
56.7545   644
56.764    641
56.7735   666
56.783    658
56.7925   684
56.802    682
56.8115   745
56.821    815
56.8305   767
56.84     822
56.8495   845
56.859    853
56.8685   966
56.878    924
56.8875   963
56.897    1025
56.9065   980
56.916    925
56.9255   979
56.935    920
56.9445   917
56.954    843
56.9635   860
56.973    891
56.9825   858
56.992    888
57.0015   891
57.011    871
57.0205   908
57.03     892
57.0395   907
57.049    928
57.0585   955
57.068    977
57.0775   979
57.087    870
57.0965   871
57.106    802
57.1155   833
57.125    781
57.1345   736
57.144    763
57.1535   719
57.163    729
57.1725   746
57.182    691
57.1915   698
57.201    683
57.2105   746
57.22     676
57.2295   673
57.239    664
57.2485   701
57.258    650
57.2675   699
57.277    637
57.2865   641
57.296    647
57.3055   620
57.315    618
57.3245   601
57.334    615
57.3435   600
57.353    615
57.3625   600
57.372    587
57.3815   610
57.391    568
57.4005   574
57.41     556
57.4195   569
57.429    644
57.4385   615
57.448    606
57.4575   570
57.467    626
57.4765   592
57.486    577
57.4955   602
57.505    594
57.5145   628
57.524    582
57.5335   609
57.543    588
57.5525   593
57.562    588
57.5715   601
57.581    593
57.5905   573
57.6      563
57.6095   584
57.619    582
57.6285   565
57.638    614
57.6475   550
57.657    566
57.6665   599
57.676    551
57.6855   571
57.695    575
57.7045   570
57.714    621
57.7235   624
57.733    602
57.7425   575
57.752    562
57.7615   595
57.771    599
57.7805   630
57.79     640
57.7995   585
57.809    633
57.8185   613
57.828    633
57.8375   677
57.847    617
57.8565   609
57.866    560
57.8755   581
57.885    572
57.8945   613
57.904    574
57.9135   613
57.923    570
57.9325   594
57.942    579
57.9515   629
57.961    591
57.9705   580
57.98     593
57.9895   563
57.999    561
58.0085   566
58.018    593
58.0275   601
58.037    653
58.0465   587
58.056    541
58.0655   556
58.075    594
58.0845   606
58.094    619
58.1035   592
58.113    577
58.1225   593
58.132    613
58.1415   557
58.151    567
58.1605   579
58.17     586
58.1795   572
58.189    579
58.1985   590
58.208    559
58.2175   561
58.227    566
58.2365   580
58.246    579
58.2555   596
58.265    565
58.2745   596
58.284    622
58.2935   582
58.303    585
58.3125   547
58.322    567
58.3315   577
58.341    561
58.3505   582
58.36     527
58.3695   532
58.379    582
58.3885   569
58.398    594
58.4075   640
58.417    522
58.4265   569
58.436    549
58.4455   586
58.455    542
58.4645   580
58.474    616
58.4835   576
58.493    540
58.5025   603
58.512    586
58.5215   568
58.531    527
58.5405   575
58.55     582
58.5595   553
58.569    584
58.5785   549
58.588    600
58.5975   589
58.607    571
58.6165   539
58.626    546
58.6355   567
58.645    602
58.6545   576
58.664    544
58.6735   567
58.683    583
58.6925   556
58.702    596
58.7115   566
58.721    595
58.7305   560
58.74     571
58.7495   554
58.759    553
58.7685   585
58.778    564
58.7875   564
58.797    583
58.8065   556
58.816    558
58.8255   546
58.835    563
58.8445   593
58.854    590
58.8635   613
58.873    609
58.8825   543
58.892    617
58.9015   600
58.911    496
58.9205   570
58.93     565
58.9395   534
58.949    618
58.9585   582
58.968    538
58.9775   556
58.987    582
58.9965   612
59.006    533
59.0155   593
59.025    578
59.0345   541
59.044    536
59.0535   560
59.063    587
59.0725   610
59.082    543
59.0915   563
59.101    537
59.1105   577
59.12     572
59.1295   576
59.139    555
59.1485   532
59.158    597
59.1675   590
59.177    587
59.1865   539
59.196    645
59.2055   583
59.215    568
59.2245   505
59.234    548
59.2435   554
59.253    580
59.2625   559
59.272    595
59.2815   576
59.291    575
59.3005   529
59.31     630
59.3195   570
59.329    582
59.3385   562
59.348    578
59.3575   580
59.367    544
59.3765   587
59.386    541
59.3955   560
59.405    570
59.4145   563
59.424    584
59.4335   573
59.443    554
59.4525   528
59.462    553
59.4715   577
59.481    577
59.4905   578
59.5      537
59.5095   526
59.519    579
59.5285   519
59.538    566
59.5475   571
59.557    557
59.5665   577
59.576    509
59.5855   534
59.595    575
59.6045   545
59.614    595
59.6235   597
59.633    608
59.6425   643
59.652    569
59.6615   553
59.671    631
59.6805   612
59.69     664
59.6995   695
59.709    669
59.7185   654
59.728    681
59.7375   711
59.747    709
59.7565   654
59.766    639
59.7755   679
59.785    614
59.7945   658
59.804    641
59.8135   620
59.823    602
59.8325   664
59.842    614
59.8515   616
59.861    636
59.8705   598
59.88     592
59.8895   657
59.899    684
59.9085   622
59.918    623
59.9275   653
59.937    622
59.9465   609
59.956    611
59.9655   554
59.975    598
59.9845   590
59.994    602
60.0035   545
